380	8.6944
381	8.6881
382	8.6819
383	8.6757
384	8.6695
385	8.6634
386	8.6574
387	8.6514
388	8.6455
389	8.6396
390	8.6337
391	8.6279
392	8.6222
393	8.6165
394	8.6108
395	8.6052
396	8.5997
397	8.5942
398	8.5887
399	8.5833
400	8.5779
401	8.5726
402	8.5673
403	8.5621
404	8.5569
405	8.5518
406	8.5467
407	8.5416
408	8.5366
409	8.5316
410	8.5267
411	8.5218
412	8.5170
413	8.5122
414	8.5074
415	8.5027
416	8.4981
417	8.4934
418	8.4888
419	8.4843
420	8.4798
421	8.4753
422	8.4709
423	8.4665
424	8.4622
425	8.4578
426	8.4536
427	8.4493
428	8.4451
429	8.4410
430	8.4369
431	8.4328
432	8.4287
433	8.4247
434	8.4208
435	8.4168
436	8.4129
437	8.4091
438	8.4052
439	8.4014
440	8.3977
441	8.3940
442	8.3903
443	8.3866
444	8.3830
445	8.3794
446	8.3759
447	8.3723
448	8.3688
449	8.3654
450	8.3620
451	8.3586
452	8.3552
453	8.3519
454	8.3486
455	8.3453
456	8.3421
457	8.3389
458	8.3357
459	8.3326
460	8.3295
461	8.3264
462	8.3233
463	8.3203
464	8.3173
465	8.3143
466	8.3114
467	8.3085
468	8.3056
469	8.3027
470	8.2999
471	8.2971
472	8.2943
473	8.2916
474	8.2889
475	8.2862
476	8.2835
477	8.2809
478	8.2782
479	8.2756
480	8.2731
481	8.2705
482	8.2680
483	8.2655
484	8.2631
485	8.2606
486	8.2582
487	8.2558
488	8.2534
489	8.2511
490	8.2487
491	8.2464
492	8.2442
493	8.2419
494	8.2397
495	8.2374
496	8.2353
497	8.2331
498	8.2309
499	8.2288
500	8.2267
501	8.2246
502	8.2225
503	8.2205
504	8.2185
505	8.2164
506	8.2145
507	8.2125
508	8.2105
509	8.2086
510	8.2067
511	8.2048
512	8.2029
513	8.2011
514	8.1992
515	8.1974
516	8.1956
517	8.1938
518	8.1920
519	8.1903
520	8.1885
521	8.1868
522	8.1851
523	8.1834
524	8.1818
525	8.1801
526	8.1785
527	8.1769
528	8.1752
529	8.1737
530	8.1721
531	8.1705
532	8.1690
533	8.1674
534	8.1659
535	8.1644
536	8.1629
537	8.1614
538	8.1600
539	8.1585
540	8.1571
541	8.1557
542	8.1542
543	8.1528
544	8.1515
545	8.1501
546	8.1487
547	8.1474
548	8.1460
549	8.1447
550	8.1434
551	8.1421
552	8.1408
553	8.1395
554	8.1383
555	8.1370
556	8.1357
557	8.1345
558	8.1333
559	8.1321
560	8.1309
561	8.1297
562	8.1285
563	8.1273
564	8.1261
565	8.1250
566	8.1238
567	8.1227
568	8.1215
569	8.1204
570	8.1193
571	8.1182
572	8.1171
573	8.1160
574	8.1149
575	8.1138
576	8.1128
577	8.1117
578	8.1107
579	8.1096
580	8.1086
581	8.1075
582	8.1065
583	8.1055
584	8.1045
585	8.1035
586	8.1025
587	8.1015
588	8.1005
589	8.0995
590	8.0985
591	8.0976
592	8.0966
593	8.0956
594	8.0947
595	8.0937
596	8.0928
597	8.0919
598	8.0909
599	8.0900
600	8.0891
601	8.0882
602	8.0872
603	8.0863
604	8.0854
605	8.0845
606	8.0836
607	8.0827
608	8.0818
609	8.0810
610	8.0801
611	8.0792
612	8.0783
613	8.0774
614	8.0766
615	8.0757
616	8.0748
617	8.0740
618	8.0731
619	8.0722
620	8.0714
621	8.0705
622	8.0697
623	8.0688
624	8.0680
625	8.0671
626	8.0663
627	8.0655
628	8.0646
629	8.0638
630	8.0630
631	8.0621
632	8.0613
633	8.0605
634	8.0596
635	8.0588
636	8.0580
637	8.0571
638	8.0563
639	8.0555
640	8.0546
641	8.0536
642	8.0527
643	8.0518
644	8.0509
645	8.0499
646	8.0490
647	8.0481
648	8.0472
649	8.0462
650	8.0453
651	8.0444
652	8.0435
653	8.0425
654	8.0416
655	8.0407
656	8.0398
657	8.0388
658	8.0379
659	8.0370
660	8.0360
661	8.0351
662	8.0342
663	8.0333
664	8.0323
665	8.0314
666	8.0304
667	8.0295
668	8.0286
669	8.0276
670	8.0268
671	8.0260
672	8.0251
673	8.0243
674	8.0234
675	8.0226
676	8.0217
677	8.0209
678	8.0200
679	8.0192
680	8.0183
681	8.0175
682	8.0166
683	8.0157
684	8.0149
685	8.0140
686	8.0131
687	8.0123
688	8.0114
689	8.0105
690	8.0096
691	8.0088
692	8.0079
693	8.0070
694	8.0061
695	8.0052
696	8.0043
697	8.0034
698	8.0025
699	8.0016
700	8.0007
701	7.9998
702	7.9989
703	7.9980
704	7.9971
705	7.9962
706	7.9953
707	7.9943
708	7.9934
709	7.9925
710	7.9916
711	7.9906
712	7.9897
713	7.9888
714	7.9878
715	7.9869
716	7.9859
717	7.9850
718	7.9840
719	7.9831
720	7.9821
721	7.9812
722	7.9802
723	7.9792
724	7.9783
725	7.9773
726	7.9763
727	7.9753
728	7.9744
729	7.9734
730	7.9724
731	7.9714
732	7.9704
733	7.9694
734	7.9684
735	7.9674
736	7.9664
737	7.9654
738	7.9644
739	7.9634
740	7.9624
741	7.9614
742	7.9603
743	7.9593
744	7.9583
745	7.9573
746	7.9562
747	7.9552
748	7.9542
749	7.9531
750	7.9521
751	7.9512
752	7.9504
753	7.9495
754	7.9487
755	7.9478
756	7.9469
757	7.9460
758	7.9452
759	7.9444
760	7.9436
760.86	7.9433
762.33	7.9427
763.80	7.9421
765.26	7.9415
766.73	7.9409
768.20	7.9401
769.67	7.9395
771.14	7.9389
772.60	7.9383
774.07	7.9377
775.54	7.9371
777.01	7.9363
778.47	7.9357
779.94	7.9350
781.41	7.9344
782.88	7.9339
784.34	7.9332
785.81	7.9324
787.28	7.9318
788.75	7.9312
790.22	7.9306
791.68	7.9300
793.15	7.9292
794.62	7.9285
796.09	7.9279
797.55	7.9273
799.02	7.9267
800.49	7.9260
801.96	7.9253
803.43	7.9247
804.89	7.9241
806.36	7.9234
807.83	7.9228
809.30	7.9220
810.76	7.9214
812.23	7.9208
813.70	7.9202
815.17	7.9195
816.63	7.9188
818.10	7.9181
819.57	7.9175
821.04	7.9169
822.51	7.9162
823.97	7.9156
825.44	7.9149
826.91	7.9142
828.38	7.9135
829.84	7.9129
831.31	7.9123
832.78	7.9117
834.25	7.9108
835.71	7.9102
837.18	7.9096
838.65	7.9090
840.12	7.9084
841.59	7.9076
843.05	7.9069
844.52	7.9063
845.99	7.9056
847.46	7.9050
848.92	7.9044
850.39	7.9035
851.86	7.9029
853.33	7.9025
854.80	7.9021
856.26	7.9015
857.73	7.9011
859.20	7.9005
860.67	7.9001
862.13	7.8997
863.60	7.8992
865.07	7.8987
866.54	7.8983
868.00	7.8979
869.47	7.8973
870.94	7.8969
872.41	7.8964
873.88	7.8959
875.34	7.8955
876.81	7.8951
878.28	7.8946
879.75	7.8941
881.21	7.8937
882.68	7.8931
884.15	7.8927
885.62	7.8922
887.08	7.8917
888.55	7.8913
890.02	7.8909
891.49	7.8903
892.96	7.8898
894.42	7.8894
895.89	7.8888
897.36	7.8884
898.83	7.8880
900.29	7.8874
901.76	7.8870
903.23	7.8866
904.70	7.8861
906.16	7.8856
907.63	7.8851
909.10	7.8845
910.57	7.8841
912.04	7.8837
913.50	7.8832
914.97	7.8827
916.44	7.8823
917.91	7.8819
919.37	7.8813
920.84	7.8808
922.31	7.8803
923.78	7.8798
925.25	7.8794
926.71	7.8789
928.18	7.8784
929.65	7.8780
931.12	7.8776
932.58	7.8770
934.05	7.8765
935.52	7.8761
936.99	7.8755
938.45	7.8751
939.92	7.8746
941.39	7.8741
942.86	7.8736
944.33	7.8732
945.79	7.8727
947.26	7.8722
948.73	7.8718
950.20	7.8712
951.66	7.8707
953.13	7.8703
954.60	7.8698
956.07	7.8693
957.53	7.8688
959.00	7.8684
960.47	7.8679
961.94	7.8674
963.41	7.8668
964.87	7.8663
966.34	7.8659
967.81	7.8655
969.28	7.8649
970.74	7.8644
972.21	7.8640
973.68	7.8636
975.15	7.8630
976.61	7.8625
978.08	7.8619
979.55	7.8615
981.02	7.8611
982.49	7.8606
983.95	7.8600
985.42	7.8596
986.89	7.8592
988.36	7.8586
989.82	7.8581
991.29	7.8576
992.76	7.8571
994.23	7.8567
995.70	7.8562
997.16	7.8557
998.63	7.8552
1000.10	7.8548
1001.57	7.8541
1003.03	7.8537
1004.50	7.8532
1005.97	7.8527
1007.44	7.8522
1008.90	7.8518
1010.37	7.8513
1011.84	7.8508
1013.31	7.8503
1014.77	7.8499
1016.24	7.8493
1017.71	7.8490
1019.18	7.8485
1020.65	7.8482
1022.11	7.8476
1023.58	7.8473
1025.05	7.8468
1026.52	7.8464
1027.98	7.8459
1029.45	7.8455
1030.92	7.8451
1032.39	7.8447
1033.86	7.8442
1035.32	7.8439
1036.79	7.8434
1038.26	7.8430
1039.73	7.8425
1041.19	7.8422
1042.66	7.8417
1044.13	7.8413
1045.60	7.8408
1047.06	7.8405
1048.53	7.8400
1050.00	7.8394
_end of data_
[Titles]
X-Axis=Wavelength [nm]
Y-Axis=Intensity
